# k P0(k) P2(k) P4(k)
1.250000000000000069e-02 4.284360793202408968e+04 5.614656495707802605e+03 2.389610218942054053e+04 1.294586688754500756e+04 9.778927991850113131e+02 1.732165685583370941e+04
1.750000000000000167e-02 4.547000881306105293e+04 4.254516274695080938e+03 2.478153303528909237e+04 9.803203958034093375e+03 1.064964710058762648e+03 1.311750641407221701e+04
2.249999999999999917e-02 4.376240166058061732e+04 3.185656445343345240e+03 2.356494255206831076e+04 7.337729826137539931e+03 1.126598140908439063e+03 9.818797764375742190e+03
2.750000000000000014e-02 3.962141266054911102e+04 2.361583551842375527e+03 2.116814647028524632e+04 5.438246758741724989e+03 1.173948825846905038e+03 7.277207209140054147e+03
3.250000000000000111e-02 3.516632873759500217e+04 1.775356031259853353e+03 1.862616197506914250e+04 4.087162238177111703e+03 1.015340110675362098e+03 5.469378510820149131e+03
3.749999999999999861e-02 3.054148553278544205e+04 1.338094568611010118e+03 1.600570731367274129e+04 3.079476990197259511e+03 7.454162569822400428e+02 4.121029077876006340e+03
4.250000000000000305e-02 2.715492407331630602e+04 1.051096695462581920e+03 1.414346593086450412e+04 2.418481079711663369e+03 7.420459271027395971e+02 3.236526639379299922e+03
4.750000000000000056e-02 2.441231516745752015e+04 8.465644924150574298e+02 1.267552364740533449e+04 1.947632702561619453e+03 8.772933415124655312e+02 2.606442360277463649e+03
5.249999999999999806e-02 2.249293203359046674e+04 7.064890781757910645e+02 1.155956661856326537e+04 1.624862555649318665e+03 8.083475073544232146e+02 2.174550135372985096e+03
5.750000000000000250e-02 2.098527548414859484e+04 6.024183373285028438e+02 1.061965083087536914e+04 1.384891094233768172e+03 6.372768471087765647e+02 1.853468268613559303e+03
6.250000000000000000e-02 1.964013032696458686e+04 5.192271091734289712e+02 9.753134507772672805e+03 1.193010265242746073e+03 4.955285134298366643e+02 1.596737981341607110e+03
6.750000000000000444e-02 1.837311306004231301e+04 4.502426540317807167e+02 8.921905220456877942e+03 1.033871734106344775e+03 3.678769853987573697e+02 1.383818818740350252e+03
7.249999999999999500e-02 1.712128671398030565e+04 3.911140158337994421e+02 8.202458831976744477e+03 8.977571889233001912e+02 3.711245453983090101e+02 1.201671374876643995e+03
7.749999999999999944e-02 1.587647649376704976e+04 3.397620925532910974e+02 7.534640840035806832e+03 7.796698469091240895e+02 4.348295643997104207e+02 1.043633328985070420e+03
8.250000000000000389e-02 1.455363523839331174e+04 2.930966157386756663e+02 6.863058511894396361e+03 6.724465483108285753e+02 3.869158792242919276e+02 9.001246944653552191e+02
8.749999999999999445e-02 1.319619121466316938e+04 2.511212726846596013e+02 6.189806893408541328e+03 5.760350442091636296e+02 2.895050144083649570e+02 7.710825767109880644e+02
9.249999999999999889e-02 1.206146544255538902e+04 2.175991059940115804e+02 5.621338060476442479e+03 4.990335515236560013e+02 3.235187675890135779e+02 6.680204867706446521e+02
9.750000000000000333e-02 1.102150464336934783e+04 1.890956097183761244e+02 5.097453529743801482e+03 4.335574958822793405e+02 4.134527261186733540e+02 5.803848399417022392e+02
1.024999999999999939e-01 1.026143548443171676e+04 1.678132922065611012e+02 4.712618853498865064e+03 3.846762585957203555e+02 4.524719180704682913e+02 5.149595341613543269e+02
1.074999999999999983e-01 9.615555874209974718e+03 1.502380301220945000e+02 4.384513417608763120e+03 3.443126150274061388e+02 4.707190204616700839e+02 4.609342661536754804e+02
1.125000000000000028e-01 9.143470506078085236e+03 1.367370965850596747e+02 4.093258632182293695e+03 3.132221015906897605e+02 3.823599449446163021e+02 4.193305087106218139e+02
1.174999999999999933e-01 8.739319216449797750e+03 1.253253368939896006e+02 3.816408322712000881e+03 2.869052337722517905e+02 2.523297969460918750e+02 3.841189443619012991e+02
1.224999999999999978e-01 8.347694351494747025e+03 1.150114302475643342e+02 3.560142987681081649e+03 2.631426056355457490e+02 1.928144026860764200e+02 3.523223237579567808e+02
1.275000000000000022e-01 7.960756976420803767e+03 1.055662409488042357e+02 3.311580717323805402e+03 2.413896107838006913e+02 1.596862021577575774e+02 3.232138437278913443e+02
1.325000000000000067e-01 7.575533911525034455e+03 9.685493510409665419e+01 3.089211049551614451e+03 2.213655059369085620e+02 2.236115512384434396e+02 2.964143715113005442e+02
1.375000000000000111e-01 7.190924438690857642e+03 8.878443529145046398e+01 2.876216332254135068e+03 2.028277434819913196e+02 3.222746556843602548e+02 2.716026119532546659e+02
1.424999999999999878e-01 6.813260175668227930e+03 8.135954042373712980e+01 2.701972316595672964e+03 1.858234128172528301e+02 2.954980717239702130e+02 2.488373888306426238e+02
1.474999999999999922e-01 6.437971316726443547e+03 7.446421591362660308e+01 2.540981834999785406e+03 1.700487599152114342e+02 2.258185437451949156e+02 2.277164761359063050e+02
1.524999999999999967e-01 6.075006166502231281e+03 6.815245210384549068e+01 2.374067545238121056e+03 1.555945031817804818e+02 2.396617997655918089e+02 2.083651733499789032e+02
1.575000000000000011e-01 5.716064529363816291e+03 6.228297611090475527e+01 2.205219217580966870e+03 1.421483736568507084e+02 2.807740396677484682e+02 1.903641019487419896e+02
1.625000000000000056e-01 5.432859657935954601e+03 5.753258574522887159e+01 2.083723079366701313e+03 1.312840501376626037e+02 2.579083692621776436e+02 1.758173170115810535e+02
1.675000000000000100e-01 5.173232110669562644e+03 5.329469288906817326e+01 1.976967970951848201e+03 1.215981820745399631e+02 2.151259791981038347e+02 1.628476813467822240e+02
1.724999999999999867e-01 4.982248159308936920e+03 4.994956105692332216e+01 1.855611286721241186e+03 1.139037818300199092e+02 2.111110640942518160e+02 1.525504134618716137e+02
1.774999999999999911e-01 4.811614994546181151e+03 4.697932515674197163e+01 1.729925669113847789e+03 1.070548241015406177e+02 2.185895534288397641e+02 1.433865561946758760e+02
1.824999999999999956e-01 4.647217798566591227e+03 4.422740574090631327e+01 1.629770069010381576e+03 1.007339006508079109e+02 2.332655061699599912e+02 1.349263462691673965e+02
1.875000000000000000e-01 4.484578935809803625e+03 4.163750470024313444e+01 1.536813074210565446e+03 9.479200676045800833e+01 2.499709012427636310e+02 1.269726448710722764e+02
1.925000000000000044e-01 4.317442680043447581e+03 3.914415292881007247e+01 1.419391367559368064e+03 8.904784664384159498e+01 2.295665477607499554e+02 1.192864101956139677e+02
1.975000000000000089e-01 4.149102097540853720e+03 3.676713100304998960e+01 1.295418419663675422e+03 8.356552016696433327e+01 1.992248233919650602e+02 1.119512589533802327e+02
2.025000000000000133e-01 4.001190577882683101e+03 3.467154223778797473e+01 1.223569426723008519e+03 7.877337800191776296e+01 2.010957174497746394e+02 1.055347655098093327e+02
2.074999999999999900e-01 3.858466215112834561e+03 3.271759587634190325e+01 1.164955261735565500e+03 7.431612590076593960e+01 2.111457388045567143e+02 9.956538644598494159e+01
2.124999999999999944e-01 3.713645587001637523e+03 3.083955867302699616e+01 1.105454094345946942e+03 7.003189470385881066e+01 1.950592235405218275e+02 9.382774273633101814e+01
2.174999999999999989e-01 3.568321145954890653e+03 2.904410130650631316e+01 1.045739746270054638e+03 6.593601043342275148e+01 1.726910964121314009e+02 8.834234693411310957e+01
2.225000000000000033e-01 3.439776543308490545e+03 2.745197208627457641e+01 9.808055555055256036e+02 6.229364892877418214e+01 2.007642804524577969e+02 8.346554732143569311e+01
2.275000000000000078e-01 3.315041915185626294e+03 2.595705933681189848e+01 9.146861645509779919e+02 5.887121141272282188e+01 2.402905015186103412e+02 7.888349980846903975e+01
2.325000000000000122e-01 3.215798365587172611e+03 2.470472955698800277e+01 8.544523285447248782e+02 5.599984363731510228e+01 2.277998904275605412e+02 7.503974567195136558e+01
2.374999999999999889e-01 3.122011346073664754e+03 2.354248921128641214e+01 7.954783336084061602e+02 5.333399167246521699e+01 2.041747402734611114e+02 7.147122956019465789e+01
2.424999999999999933e-01 3.030766291546792218e+03 2.244522177129139706e+01 7.434941513918287228e+02 5.082208518563382427e+01 1.842502949918481647e+02 6.810820935056671033e+01
2.474999999999999978e-01 2.940033007816875852e+03 2.139565078513211560e+01 6.929172198828582623e+02 4.842034240458654182e+01 1.650709082345849197e+02 6.489256639531018322e+01
2.525000000000000022e-01 2.857098271548163666e+03 2.043787006087992708e+01 6.425731214968232052e+02 4.622620354563607492e+01 1.830809276270253179e+02 6.195516919514911791e+01
2.575000000000000067e-01 2.775636409976383675e+03 1.952658591983134428e+01 5.922729971991788034e+02 4.413809261742607504e+01 2.081147338957155171e+02 5.915977593651225419e+01
2.625000000000000111e-01 2.699410922295525779e+03 1.868245524557242732e+01 5.543696586908606605e+02 4.221176087633420337e+01 2.093536733812601369e+02 5.658002925790568582e+01
2.675000000000000155e-01 2.624110480198281493e+03 1.787550414813130217e+01 5.186563074111655851e+02 4.037169225884343149e+01 2.063890672665615398e+02 5.411563921331159577e+01
2.725000000000000200e-01 2.550127637668442276e+03 1.710602856908991853e+01 4.813913737653298313e+02 3.861555218907321319e+01 2.134832499608671412e+02 5.176383574050107939e+01
2.775000000000000244e-01 2.476361801445989840e+03 1.636555346896031793e+01 4.438708972609418879e+02 3.692534143135738134e+01 2.222340972976169269e+02 4.950035553583091286e+01
2.824999999999999734e-01 2.408778218123186889e+03 1.568687589879309208e+01 4.181683723819963916e+02 3.538314486525921865e+01 2.139192631546894745e+02 4.743426802063115133e+01
2.874999999999999778e-01 2.342140392414687540e+03 1.503715375781440855e+01 3.942737511777580153e+02 3.390784382730502955e+01 2.029937305391033249e+02 4.545767027239308078e+01
2.924999999999999822e-01 2.280998822126376126e+03 1.444020003447705491e+01 3.676565419767348430e+02 3.254938587628213753e+01 2.030067563883501975e+02 4.363797321551440689e+01
2.974999999999999867e-01 2.220634939756698714e+03 1.386756277114214342e+01 3.406541025360940012e+02 3.124582385633029347e+01 2.045675241300375831e+02 4.189186385228135379e+01
3.024999999999999911e-01 2.169234912491413525e+03 1.336204163204990358e+01 3.066203159404794292e+02 3.008830372939004505e+01 2.048927387990774491e+02 4.034217936241985569e+01
3.074999999999999956e-01 2.119002296417541402e+03 1.287913368216528553e+01 2.716707990855254593e+02 2.898160461234797936e+01 2.050570407282531278e+02 3.886064855345222213e+01
3.125000000000000000e-01 2.071483167855724787e+03 1.242579859930451569e+01 2.493064509618082525e+02 2.795019952066142466e+01 2.116422630272339518e+02 3.747902443171062714e+01
3.175000000000000044e-01 2.024287477706539448e+03 1.198839831558724889e+01 2.284422118229443583e+02 2.695595541936015849e+01 2.189928370305478893e+02 3.614707184648968763e+01
3.225000000000000089e-01 1.976333901505703579e+03 1.156073940651575427e+01 2.065130870920042696e+02 2.598330886163270037e+01 2.030814149429324686e+02 3.484411828520939736e+01
3.275000000000000133e-01 1.928298192211000469e+03 1.114573097461713758e+01 1.844685593290367933e+02 2.503937182928026672e+01 1.846490601843541413e+02 3.357963183987367728e+01
3.325000000000000178e-01 1.885023760288423546e+03 1.076648935953856245e+01 1.641018228672764678e+02 2.417693087606238578e+01 1.938359538877714385e+02 3.242429980558588198e+01
3.375000000000000222e-01 1.842214759538357612e+03 1.040072703494581319e+01 1.438990962523528196e+02 2.334515410218785547e+01 2.057227237359369099e+02 3.131004495610610761e+01
3.425000000000000266e-01 1.804420211723989723e+03 1.006945141978345504e+01 1.182602263954196786e+02 2.258760638868051984e+01 2.068733377656279231e+02 3.029573025679558285e+01
3.474999999999999756e-01 1.767063611468337058e+03 9.749758276668060830e+00 9.214657978971857233e+01 2.185614913323147945e+01 2.070862875493928641e+02 2.931639731508338187e+01
3.524999999999999800e-01 1.726213307105787635e+03 9.423017668164273886e+00 7.917957186997705321e+01 2.111712802188162996e+01 2.113570449332585497e+02 2.832591984197916091e+01
3.574999999999999845e-01 1.685093580485916618e+03 9.104191170541906075e+00 6.722638680488680052e+01 2.039662456961329440e+01 2.159407262654451927e+02 2.736018667007610006e+01
3.624999999999999889e-01 1.655911307075973582e+03 8.847709310121004478e+00 5.242479017535760022e+01 1.981410545258193068e+01 2.079202292572284989e+02 2.657975235584116191e+01
3.674999999999999933e-01 1.627529873316047087e+03 8.601750104361746807e+00 3.743210413335039277e+01 1.925524970601397001e+01 1.990541644722534045e+02 2.583104982566894137e+01
3.724999999999999978e-01 1.593629152526987809e+03 8.338299889940854470e+00 2.818117799161342063e+01 1.866071796837130847e+01 1.975922656283002254e+02 2.503406464146405952e+01
3.775000000000000022e-01 1.559412501194283095e+03 8.080467590485623575e+00 1.925891700485033908e+01 1.807907188857626579e+01 1.965541900351841491e+02 2.425432807612910935e+01
3.825000000000000067e-01 1.531071881634534520e+03 7.854356659884901504e+00 7.286493693947061701e+00 1.756683305120525063e+01 2.045854954717320595e+02 2.356789705770158960e+01
3.875000000000000111e-01 1.503010820590083313e+03 7.635253996296365919e+00 -4.831044361685368216e+00 1.707035636125814193e+01 2.130482864402318057e+02 2.290260232474163971e+01
3.925000000000000155e-01 1.474151747607648986e+03 7.418427429104112569e+00 -1.933312291989513554e+01 1.657787050458779632e+01 2.126535226606588367e+02 2.224279621501968052e+01
3.975000000000000200e-01 1.445262281486035818e+03 7.206931284419941797e+00 -3.392601925654050632e+01 1.609744501801009164e+01 2.119214094237282779e+02 2.159915397498581058e+01
4.025000000000000244e-01 1.419251116604774325e+03 7.012318143188698727e+00 -4.265339184880262735e+01 1.565798616617814076e+01 2.124834930683421419e+02 2.101008200779224566e+01
4.074999999999999734e-01 1.393322750276159013e+03 6.822811189297564916e+00 -5.121203405602502556e+01 1.523013509051863323e+01 2.130828061825918667e+02 2.043656046599125276e+01
4.124999999999999778e-01 1.372116983712023512e+03 6.656515284117105580e+00 -5.932635934367462482e+01 1.485450777385744203e+01 2.133025895181754095e+02 1.993306522798420843e+01
4.174999999999999822e-01 1.351003840116527499e+03 6.494563270208729477e+00 -6.743197037346627098e+01 1.448868721216115318e+01 2.135149292471566014e+02 1.944271585268294800e+01
4.224999999999999867e-01 1.327948039857117010e+03 6.328967559089537787e+00 -7.598417356130477174e+01 1.411458468503005292e+01 2.169641657960669647e+02 1.894127164837288291e+01
4.274999999999999911e-01 1.304871607787363473e+03 6.167166953057590995e+00 -8.454111974098361770e+01 1.374905372235166823e+01 2.204477795164710869e+02 1.845131713141365992e+01
4.324999999999999956e-01 1.284776007994187239e+03 6.020314741731190189e+00 -8.954263117429321994e+01 1.341874688886438172e+01 2.213052860335055527e+02 1.800840089695233104e+01
4.375000000000000000e-01 1.264682274624698493e+03 5.876826089563475186e+00 -9.456593956362777931e+01 1.309599440847311591e+01 2.221194127755294971e+02 1.757561589719851725e+01
4.425000000000000044e-01 1.244094426777838862e+03 5.734764329587739518e+00 -1.036139002507060809e+02 1.277457799107883751e+01 2.174007221990988512e+02 1.714485045547340292e+01
4.475000000000000089e-01 1.223517152399993620e+03 5.595915555693031784e+00 -1.126020956041268164e+02 1.246045597800930338e+01 2.127683667632473146e+02 1.672385823089104662e+01
4.525000000000000133e-01 1.203604014337816579e+03 5.462521918695180112e+00 -1.178363358037861133e+02 1.216034230600884847e+01 2.135588580864311439e+02 1.632143866597099091e+01
4.575000000000000178e-01 1.183781082018422467e+03 5.332364612272634474e+00 -1.230708920179934154e+02 1.186750449849764699e+01 2.143077021695823134e+02 1.592877597767772002e+01
4.625000000000000222e-01 1.167565236639496334e+03 5.217703758859597585e+00 -1.283180848106924827e+02 1.160935050033017824e+01 2.133911842592103483e+02 1.558264254444743635e+01
4.675000000000000266e-01 1.151317306789072518e+03 5.105383943968758054e+00 -1.335154029120882910e+02 1.135649047863216943e+01 2.126135812264261631e+02 1.524360454503861639e+01
4.724999999999999756e-01 1.134132856886269792e+03 4.992218222818568307e+00 -1.372569186788458069e+02 1.110241784324259307e+01 2.158907923252961041e+02 1.490285653046941405e+01
4.774999999999999800e-01 1.117082154418035543e+03 4.881877938018139851e+00 -1.410253502682125486e+02 1.085467230648188242e+01 2.189678997905157019e+02 1.457059612455933539e+01
4.824999999999999845e-01 1.103093499005259901e+03 4.784144165195115761e+00 -1.454099993994814781e+02 1.063486982479279952e+01 2.174637848630847543e+02 1.427585542721290679e+01
4.874999999999999889e-01 1.089003813604556399e+03 4.688078190111164112e+00 -1.497633855722570217e+02 1.041883536367875607e+01 2.158782488012075476e+02 1.398616537247153069e+01
4.924999999999999933e-01 1.073017638617057401e+03 4.587701048518955993e+00 -1.535299175203494713e+02 1.019343398389605859e+01 2.127643117487985194e+02 1.368387486027419264e+01
4.974999999999999978e-01 1.057160846219643645e+03 4.489764434212043298e+00 -1.573098692896280966e+02 9.973502752768085955e+00 2.098997911536710319e+02 1.338892178068714500e+01
5.024999999999999467e-01 1.043356341756729535e+03 4.400418111158433732e+00 -1.613026884708620230e+02 9.772709845238756188e+00 2.109915554466944627e+02 1.311965407984655485e+01
5.074999999999999512e-01 1.029611365304110905e+03 4.313023044444701526e+00 -1.653747975072302836e+02 9.576266711885468297e+00 2.122651464946163458e+02 1.285622390661136727e+01
5.124999999999999556e-01 1.016681873680970739e+03 4.229920704345738081e+00 -1.705331124099175497e+02 9.388998303745360374e+00 2.160296146855218637e+02 1.260515503184266706e+01
5.174999999999999600e-01 1.003711047526922925e+03 4.148294323126112459e+00 -1.753802539450624352e+02 9.205183252467840305e+00 2.194425516765792565e+02 1.235870061178389179e+01
5.224999999999999645e-01 9.902430489836247034e+02 4.066682878883636221e+00 -1.764845973108333226e+02 9.022925583533330851e+00 2.186272658551867494e+02 1.211414851352182076e+01
5.274999999999999689e-01 9.769988179350156088e+02 3.987308374953732137e+00 -1.777974646120470936e+02 8.845582594205911420e+00 2.178396612904628569e+02 1.187620087114378542e+01
5.324999999999999734e-01 9.661484635596355020e+02 3.916734739867580473e+00 -1.813411321711811297e+02 8.687039086870946392e+00 2.173481922959064434e+02 1.166358343869418945e+01
5.374999999999999778e-01 9.552676589409616099e+02 3.847381980629004161e+00 -1.847283654831878152e+02 8.531299752898631183e+00 2.167840168776108953e+02 1.145471912068783915e+01
5.424999999999999822e-01 9.440940911532378550e+02 3.778430071440119331e+00 -1.866115652971653844e+02 8.377049438896850830e+00 2.155208072079690851e+02 1.124777972302195828e+01
5.474999999999999867e-01 9.329022426848632676e+02 3.710683262911741664e+00 -1.883882286176577452e+02 8.225535633439003291e+00 2.142201184155203180e+02 1.104450660951747132e+01
5.524999999999999911e-01 9.215510849692399233e+02 3.643693762989681506e+00 -1.892364665197646616e+02 8.076067711829347573e+00 2.125928131826907475e+02 1.084393501411982896e+01
5.574999999999999956e-01 9.103640477486435429e+02 3.578384574671908958e+00 -1.901989687907405084e+02 7.930308205692438328e+00 2.109906404584326083e+02 1.064834478707695986e+01
5.625000000000000000e-01 9.004826576909732694e+02 3.518010895143845573e+00 -1.920704918943235953e+02 7.795241300785950678e+00 2.095884073487128489e+02 1.046714240242805083e+01
5.675000000000000044e-01 8.907073025335179182e+02 3.459004901406550481e+00 -1.942822843595658924e+02 7.663107897832833970e+00 2.085652362437959368e+02 1.028989107611089793e+01
5.725000000000000089e-01 8.817066676530747600e+02 3.403230075930551823e+00 -1.989801787930178989e+02 7.537292015868498396e+00 2.103115968757910537e+02 1.012122724921158756e+01
